Id,x,y
0,0.5,-0.5
1,0.5,-0.45
2,0.5,-0.4
3,0.5,-0.35
4,0.5,-0.3
5,0.5,-0.25
6,0.5,-0.2
7,0.5,-0.15
8,0.5,-0.1
9,0.5,-0.05
10,0.5,0
11,0.5,0.05
12,0.5,0.1
13,0.5,0.15
14,0.5,0.2
15,0.5,0.25
16,0.5,0.3
17,0.5,0.35
18,0.5,0.4
19,0.5,0.45
20,0.5,0.5
21,0.45,0.5
22,0.4,0.5
23,0.35,0.5
24,0.3,0.5
25,0.25,0.5
26,0.2,0.5
27,0.15,0.5
28,0.1,0.5
29,0.05,0.5
30,0,0.5
31,-0.05,0.5
32,-0.1,0.5
33,-0.15,0.5
34,-0.2,0.5
35,-0.25,0.5
36,-0.3,0.5
37,-0.35,0.5
38,-0.4,0.5
39,-0.45,0.5
40,-0.5,0.5
41,-0.5,0.45
42,-0.5,0.4
43,-0.5,0.35
44,-0.5,0.3
45,-0.5,0.25
46,-0.5,0.2
47,-0.5,0.15
48,-0.5,0.1
49,-0.5,0.05
50,-0.5,0
51,-0.5,-0.05
52,-0.5,-0.1
53,-0.5,-0.15
54,-0.5,-0.2
55,-0.5,-0.25
56,-0.5,-0.3
57,-0.5,-0.35
58,-0.5,-0.4
59,-0.5,-0.45
60,-0.5,-0.5
61,-0.45,-0.5
62,-0.4,-0.5
63,-0.35,-0.5
64,-0.3,-0.5
65,-0.25,-0.5
66,-0.2,-0.5
67,-0.15,-0.5
68,-0.1,-0.5
69,-0.05,-0.5
70,0,-0.5
71,0.05,-0.5
72,0.1,-0.5
73,0.15,-0.5
74,0.2,-0.5
75,0.25,-0.5
76,0.3,-0.5
77,0.35,-0.5
78,0.4,-0.5
79,0.45,-0.5
80,0.45,-0.45
81,0.45,-0.405
82,0.45,-0.36
83,0.45,-0.315
84,0.45,-0.27
85,0.45,-0.225
86,0.45,-0.18
87,0.45,-0.135
88,0.45,-0.09
89,0.45,-0.045
90,0.45,0
91,0.45,0.045
92,0.45,0.09
93,0.45,0.135
94,0.45,0.18
95,0.45,0.225
96,0.45,0.27
97,0.45,0.315
98,0.45,0.36
99,0.45,0.405
100,0.45,0.45
101,0.405,0.45
102,0.36,0.45
103,0.315,0.45
104,0.27,0.45
105,0.225,0.45
106,0.18,0.45
107,0.135,0.45
108,0.09,0.45
109,0.045,0.45
110,0,0.45
111,-0.045,0.45
112,-0.09,0.45
113,-0.135,0.45
114,-0.18,0.45
115,-0.225,0.45
116,-0.27,0.45
117,-0.315,0.45
118,-0.36,0.45
119,-0.405,0.45
120,-0.45,0.45
121,-0.45,0.405
122,-0.45,0.36
123,-0.45,0.315
124,-0.45,0.27
125,-0.45,0.225
126,-0.45,0.18
127,-0.45,0.135
128,-0.45,0.09
129,-0.45,0.045
130,-0.45,0
131,-0.45,-0.045
132,-0.45,-0.09
133,-0.45,-0.135
134,-0.45,-0.18
135,-0.45,-0.225
136,-0.45,-0.27
137,-0.45,-0.315
138,-0.45,-0.36
139,-0.45,-0.405
140,-0.45,-0.45
141,-0.405,-0.45
142,-0.36,-0.45
143,-0.315,-0.45
144,-0.27,-0.45
145,-0.225,-0.45
146,-0.18,-0.45
147,-0.135,-0.45
148,-0.09,-0.45
149,-0.045,-0.45
150,0,-0.45
151,0.045,-0.45
152,0.09,-0.45
153,0.135,-0.45
154,0.18,-0.45
155,0.225,-0.45
156,0.27,-0.45
157,0.315,-0.45
158,0.36,-0.45
159,0.405,-0.45
160,0.4,-0.4
161,0.4,-0.36
162,0.4,-0.32
163,0.4,-0.28
164,0.4,-0.24
165,0.4,-0.2
166,0.4,-0.16
167,0.4,-0.12
168,0.4,-0.08
169,0.4,-0.04
170,0.4,0
171,0.4,0.04
172,0.4,0.08
173,0.4,0.12
174,0.4,0.16
175,0.4,0.2
176,0.4,0.24
177,0.4,0.28
178,0.4,0.32
179,0.4,0.36
180,0.4,0.4
181,0.36,0.4
182,0.32,0.4
183,0.28,0.4
184,0.24,0.4
185,0.2,0.4
186,0.16,0.4
187,0.12,0.4
188,0.08,0.4
189,0.04,0.4
190,0,0.4
191,-0.04,0.4
192,-0.08,0.4
193,-0.12,0.4
194,-0.16,0.4
195,-0.2,0.4
196,-0.24,0.4
197,-0.28,0.4
198,-0.32,0.4
199,-0.36,0.4
200,-0.4,0.4
201,-0.4,0.36
202,-0.4,0.32
203,-0.4,0.28
204,-0.4,0.24
205,-0.4,0.2
206,-0.4,0.16
207,-0.4,0.12
208,-0.4,0.08
209,-0.4,0.04
210,-0.4,0
211,-0.4,-0.04
212,-0.4,-0.08
213,-0.4,-0.12
214,-0.4,-0.16
215,-0.4,-0.2
216,-0.4,-0.24
217,-0.4,-0.28
218,-0.4,-0.32
219,-0.4,-0.36
220,-0.4,-0.4
221,-0.36,-0.4
222,-0.32,-0.4
223,-0.28,-0.4
224,-0.24,-0.4
225,-0.2,-0.4
226,-0.16,-0.4
227,-0.12,-0.4
228,-0.08,-0.4
229,-0.04,-0.4
230,0,-0.4
231,0.04,-0.4
232,0.08,-0.4
233,0.12,-0.4
234,0.16,-0.4
235,0.2,-0.4
236,0.24,-0.4
237,0.28,-0.4
238,0.32,-0.4
239,0.36,-0.4
240,0.35,-0.35
241,0.35,-0.315
242,0.35,-0.28
243,0.35,-0.245
244,0.35,-0.21
245,0.35,-0.175
246,0.35,-0.14
247,0.35,-0.105
248,0.35,-0.07
249,0.35,-0.035
250,0.35,0
251,0.35,0.035
252,0.35,0.07
253,0.35,0.105
254,0.35,0.14
255,0.35,0.175
256,0.35,0.21
257,0.35,0.245
258,0.35,0.28
259,0.35,0.315
260,0.35,0.35
261,0.315,0.35
262,0.28,0.35
263,0.245,0.35
264,0.21,0.35
265,0.175,0.35
266,0.14,0.35
267,0.105,0.35
268,0.07,0.35
269,0.035,0.35
270,0,0.35
271,-0.035,0.35
272,-0.07,0.35
273,-0.105,0.35
274,-0.14,0.35
275,-0.175,0.35
276,-0.21,0.35
277,-0.245,0.35
278,-0.28,0.35
279,-0.315,0.35
280,-0.35,0.35
281,-0.35,0.315
282,-0.35,0.28
283,-0.35,0.245
284,-0.35,0.21
285,-0.35,0.175
286,-0.35,0.14
287,-0.35,0.105
288,-0.35,0.07
289,-0.35,0.035
290,-0.35,0
291,-0.35,-0.035
292,-0.35,-0.07
293,-0.35,-0.105
294,-0.35,-0.14
295,-0.35,-0.175
296,-0.35,-0.21
297,-0.35,-0.245
298,-0.35,-0.28
299,-0.35,-0.315
300,-0.35,-0.35
301,-0.315,-0.35
302,-0.28,-0.35
303,-0.245,-0.35
304,-0.21,-0.35
305,-0.175,-0.35
306,-0.14,-0.35
307,-0.105,-0.35
308,-0.07,-0.35
309,-0.035,-0.35
310,0,-0.35
311,0.035,-0.35
312,0.07,-0.35
313,0.105,-0.35
314,0.14,-0.35
315,0.175,-0.35
316,0.21,-0.35
317,0.245,-0.35
318,0.28,-0.35
319,0.315,-0.35
320,0.3,-0.3
321,0.3,-0.27
322,0.3,-0.24
323,0.3,-0.21
324,0.3,-0.18
325,0.3,-0.15
326,0.3,-0.12
327,0.3,-0.09
328,0.3,-0.06
329,0.3,-0.03
330,0.3,0
331,0.3,0.03
332,0.3,0.06
333,0.3,0.09
334,0.3,0.12
335,0.3,0.15
336,0.3,0.18
337,0.3,0.21
338,0.3,0.24
339,0.3,0.27
340,0.3,0.3
341,0.27,0.3
342,0.24,0.3
343,0.21,0.3
344,0.18,0.3
345,0.15,0.3
346,0.12,0.3
347,0.09,0.3
348,0.06,0.3
349,0.03,0.3
350,0,0.3
351,-0.03,0.3
352,-0.06,0.3
353,-0.09,0.3
354,-0.12,0.3
355,-0.15,0.3
356,-0.18,0.3
357,-0.21,0.3
358,-0.24,0.3
359,-0.27,0.3
360,-0.3,0.3
361,-0.3,0.27
362,-0.3,0.24
363,-0.3,0.21
364,-0.3,0.18
365,-0.3,0.15
366,-0.3,0.12
367,-0.3,0.09
368,-0.3,0.06
369,-0.3,0.03
370,-0.3,0
371,-0.3,-0.03
372,-0.3,-0.06
373,-0.3,-0.09
374,-0.3,-0.12
375,-0.3,-0.15
376,-0.3,-0.18
377,-0.3,-0.21
378,-0.3,-0.24
379,-0.3,-0.27
380,-0.3,-0.3
381,-0.27,-0.3
382,-0.24,-0.3
383,-0.21,-0.3
384,-0.18,-0.3
385,-0.15,-0.3
386,-0.12,-0.3
387,-0.09,-0.3
388,-0.06,-0.3
389,-0.03,-0.3
390,0,-0.3
391,0.03,-0.3
392,0.06,-0.3
393,0.09,-0.3
394,0.12,-0.3
395,0.15,-0.3
396,0.18,-0.3
397,0.21,-0.3
398,0.24,-0.3
399,0.27,-0.3
400,0.25,-0.25
401,0.25,-0.225
402,0.25,-0.2
403,0.25,-0.175
404,0.25,-0.15
405,0.25,-0.125
406,0.25,-0.1
407,0.25,-0.075
408,0.25,-0.05
409,0.25,-0.025
410,0.25,0
411,0.25,0.025
412,0.25,0.05
413,0.25,0.075
414,0.25,0.1
415,0.25,0.125
416,0.25,0.15
417,0.25,0.175
418,0.25,0.2
419,0.25,0.225
420,0.25,0.25
421,0.225,0.25
422,0.2,0.25
423,0.175,0.25
424,0.15,0.25
425,0.125,0.25
426,0.1,0.25
427,0.075,0.25
428,0.05,0.25
429,0.025,0.25
430,0,0.25
431,-0.025,0.25
432,-0.05,0.25
433,-0.075,0.25
434,-0.1,0.25
435,-0.125,0.25
436,-0.15,0.25
437,-0.175,0.25
438,-0.2,0.25
439,-0.225,0.25
440,-0.25,0.25
441,-0.25,0.225
442,-0.25,0.2
443,-0.25,0.175
444,-0.25,0.15
445,-0.25,0.125
446,-0.25,0.1
447,-0.25,0.075
448,-0.25,0.05
449,-0.25,0.025
450,-0.25,0
451,-0.25,-0.025
452,-0.25,-0.05
453,-0.25,-0.075
454,-0.25,-0.1
455,-0.25,-0.125
456,-0.25,-0.15
457,-0.25,-0.175
458,-0.25,-0.2
459,-0.25,-0.225
460,-0.25,-0.25
461,-0.225,-0.25
462,-0.2,-0.25
463,-0.175,-0.25
464,-0.15,-0.25
465,-0.125,-0.25
466,-0.1,-0.25
467,-0.075,-0.25
468,-0.05,-0.25
469,-0.025,-0.25
470,0,-0.25
471,0.025,-0.25
472,0.05,-0.25
473,0.075,-0.25
474,0.1,-0.25
475,0.125,-0.25
476,0.15,-0.25
477,0.175,-0.25
478,0.2,-0.25
479,0.225,-0.25
